0  2  1  0  17739.7  -1.88769e-16  4.25778e-18  1
1  1  2  2  17433.5  2.07572  -0.282643  1
2  1  2  -2  17392.6  1.97532  -0.21345  1
3  3  -2  -2  17700.7  1.97638  -0.318811  1
4  3  -2  2  18407.2  1.97472  -0.316987  1
10  1  2  1.6  17372.5  2.09407  -0.225113  1
11  1  2  1.2  17372.5  1.98048  -0.211493  1
12  1  2  0.8  17372.5  1.96192  -0.227726  1
13  1  2  0.4  17372.5  1.97916  -0.228842  1
14  1  2  5.50449e-12  17372.5  1.95603  -0.197994  1
15  1  2  -0.4  17372.5  1.91063  -0.168456  1
16  1  2  -0.8  17372.5  1.91385  -0.17695  1
17  1  2  -1.2  17372.5  1.94427  -0.198553  1
18  1  2  -1.6  17372.5  1.96393  -0.209635  1
19  0  1.6  -2  17438.3  1.98237  -0.218853  1
20  0  1.2  -2  17487.1  1.99256  -0.22176  1
21  0  0.8  -2  17518.9  2.00296  -0.220515  1
22  0  0.4  -2  17539.8  2.01409  -0.231077  1
23  0  5.50449e-12  -2  17552.6  2.02299  -0.25396  1
24  0  -0.4  -2  17586.8  2.01442  -0.288694  1
25  0  -0.8  -2  17617.4  1.99488  -0.344909  1
26  0  -1.2  -2  17642.9  1.98793  -0.350917  1
27  0  -1.6  -2  17682.3  1.98325  -0.322055  1
28  3  -2  -1.6  17731.1  1.97472  -0.316987  1
29  3  -2  -1.2  17780.5  1.97472  -0.316987  1
30  3  -2  -0.8  17846.9  1.97472  -0.316987  1
31  3  -2  -0.4  17926.8  1.97472  -0.316987  1
32  3  -2  -5.50449e-12  18020.5  1.97472  -0.316987  1
33  3  -2  0.4  18127.2  1.97472  -0.316987  1
34  3  -2  0.8  18228.3  1.97472  -0.316987  1
35  3  -2  1.2  18307.1  1.97472  -0.316987  1
36  3  -2  1.6  18365.9  1.97472  -0.316987  1
37  0  -1.6  2  18426.2  1.97472  -0.316987  1
38  0  -1.2  2  18548.7  1.97472  -0.316987  1
39  0  -0.8  2  19015.8  1.97472  -0.316987  1
40  0  -0.4  2  19032.8  1.97472  -0.316987  1
41  0  -5.50449e-12  2  18498.9  1.97472  -0.316987  1
42  0  0.4  2  18217.3  1.97472  -0.316987  1
43  0  0.8  2  18004.7  1.97472  -0.316987  1
44  0  1.2  2  17812.1  1.97472  -0.316987  1
45  0  1.6  2  17622.7  1.97472  -0.316987  1
46  2  0.978377  0.00355967  17771  0  0  1
47  2  0.956713  0.00700303  17780.7  0  0  1
48  2  0.935113  0.0108389  17763.8  0  0  1
49  2  0.913554  0.0148955  17726.1  0  0  1
50  2  0.892025  0.0191088  17720.8  0  0  1
51  2  0.870511  0.0233961  17698  0  6.16298e-33  1
52  2  0.848997  0.0276893  17677.4  9.71832e-17  -1.73895e-17  1
53  2  0.827474  0.0319333  17638.4  0  0  1
54  2  0.805931  0.036075  17611.4  3.61903e-16  -5.77683e-17  1
55  2  0.784359  0.0400652  17600.1  0  0  1
56  2  0.762765  0.0439303  17574.8  0  0  1
57  2  0.741146  0.0476528  17550.4  0  0  1
58  2  0.71951  0.0512792  17531  1.52218e-16  -2.40517e-17  1
59  2  0.69786  0.0548194  17547.9  0  0  1
60  2  0.676198  0.0582834  17540.6  0  0  1
61  2  0.654522  0.0616646  17505.5  0  0  1
62  2  0.632824  0.0648961  17480  0  0  1
63  2  0.611107  0.0680027  17469.4  1.80333e-16  -2.34678e-17  1
64  2  0.589376  0.0709995  17463.9  1.57289e-16  -2.42247e-17  1
65  2  0.567635  0.0739292  17469  5.23857e-17  -9.40081e-18  1
66  2  0.545889  0.0768239  17458.5  0  0  1
67  2  0.524138  0.0796784  17413.5  0  0  1
68  2  0.502369  0.0823956  17399.7  0  0  1
69  2  0.480581  0.0849478  17395  0  0  1
70  2  0.458767  0.0872721  17389  0  0  1
71  2  0.436929  0.089359  17372.1  0  0  1
72  2  0.415072  0.0912447  17359.5  2.19986e-16  -1.49869e-17  1
73  2  0.393205  0.0929956  17381.6  0  0  1
74  2  0.371326  0.0945952  17363  0  0  1
75  2  0.349442  0.0961268  17357.7  0  0  1
76  2  0.327549  0.0975367  17322.4  2.0936e-16  -9.08088e-18  1
77  2  0.305649  0.0988185  17285.1  2.30473e-16  -6.37807e-18  1
78  2  0.283737  0.0998774  17246.4  0  0  1
79  2  0.261815  0.100682  17190  4.77662e-16  2.97819e-18  1
80  2  0.23988  0.101  17160.5  0  0  1
81  2  0.217943  0.100882  17100.6  -1.4631e-16  -8.54557e-18  1
82  2  0.196022  0.100128  17105.8  0  0  1
83  2  0.17417  0.0981984  17085.3  0  0  1
84  2  0.152408  0.0954559  17086.9  1.88382e-18  2.51787e-17  1
85  2  0.130871  0.0913013  17255  0  0  1
86  2  0.109654  0.0857466  17455.1  -4.22171e-16  -1.13718e-16  1
87  2  0.0889249  0.0785804  17742.7  0  0  1
88  2  0.0687697  0.0699351  18120.5  -3.36506e-16  -1.25212e-16  1
89  2  0.0498526  0.0588536  18611.1  0  0  1
90  2  0.0316918  0.0465493  19132.9  1.04281e-17  2.81104e-17  1
91  2  0.0163  0.0309887  19437  0  0  1
92  2  0.00358507  0.0132777  19302.8  0  0  1
93  2  0.00222095  -0.00765047  16732  0  0  1
94  2  0.0172787  -0.0212713  14371.3  6.76828e-17  -4.21876e-17  1
95  2  0.0381356  -0.0280679  14856.1  -1.96656e-16  5.46546e-17  1
96  2  0.0594775  -0.0330716  15439.1  0  0  1
97  2  0.0812241  -0.035938  15780.8  1.88009e-16  -3.60258e-17  1
98  2  0.103052  -0.0381193  16065.3  0  0  1
99  2  0.124936  -0.039652  16240  0  -1.2326e-32  1
100  2  0.146837  -0.0409137  16389.9  0  0  1
101  2  0.168753  -0.0418764  16483.5  -4.60817e-16  3.64888e-17  1
102  2  0.190676  -0.0426658  16583.1  0  0  1
103  2  0.212603  -0.0433498  16612  0  0  1
104  2  0.234533  -0.0439468  16662.7  5.38194e-16  -2.54332e-17  1
105  2  0.256464  -0.0444704  16711.9  0  0  1
106  2  0.278397  -0.0448892  16757.5  0  0  1
107  2  0.300333  -0.0451676  16778  0  0  1
108  2  0.32227  -0.0453139  16781.2  0  0  1
109  2  0.344208  -0.0452641  16831.1  1.58781e-16  -1.73245e-18  1
110  2  0.366144  -0.0450178  16868.2  1.53855e-16  -1.86103e-21  1
111  2  0.388078  -0.0446189  16874  0  0  1
112  2  0.410009  -0.0440775  16926.9  1.78623e-16  -5.80105e-19  1
113  2  0.431937  -0.043434  17015.3  0  0  1
114  2  0.453862  -0.0427155  17059.1  0  0  1
115  2  0.475786  -0.0419234  17025.3  0  0  1
116  2  0.497706  -0.0410497  17048.4  0  0  1
117  2  0.519622  -0.0400753  17099.2  0  0  1
118  2  0.541533  -0.0390038  17131.7  0  0  1
119  2  0.56344  -0.0378448  17180.6  0  0  1
120  2  0.58534  -0.036569  17179.6  0  0  1
121  2  0.607232  -0.0351537  17214.1  1.54696e-16  3.82126e-18  1
122  2  0.629116  -0.0336243  17243.9  0  0  1
123  2  0.650993  -0.0319942  17270.4  2.89535e-16  1.39244e-17  1
124  2  0.672865  -0.030289  17298.8  0  0  1
125  2  0.694734  -0.0285643  17311  0  0  1
126  2  0.716604  -0.0268354  17339.2  0  0  1
127  2  0.738474  -0.025126  17383.5  -2.55722e-16  -1.74422e-17  1
128  2  0.760344  -0.0233988  17429.3  0  0  1
129  2  0.782209  -0.0216159  17432.4  0  0  1
130  2  0.804065  -0.0197235  17463.7  -1.19637e-16  -1.03428e-17  1
131  2  0.825909  -0.0176988  17487.5  0  0  1
132  2  0.847737  -0.0155147  17527.2  0  0  1
133  2  0.869551  -0.0131877  17568.9  0  0  1
134  2  0.891354  -0.0107649  17589.2  0  0  1
135  2  0.91315  -0.00827225  17624.9  9.95278e-17  8.89465e-18  1
136  2  0.934948  -0.00580082  17644.4  0  0  1
137  2  0.956766  -0.00351863  17674.1  0  0  1
138  2  0.978607  -0.00146367  17701.2  0  0  1
268  0  1.05533  -0.861716  17475.5  2.00504  -0.15117  1
269  0  0.155359  -0.9915  17525  2.076  -0.204218  1
270  0  -0.466459  -0.577278  17729.2  2.05264  -0.40765  1
271  0  -0.612247  0.0374923  18027  1.97035  -0.45763  1
272  0  -0.287664  0.996993  18243.1  1.94137  -0.107288  1
273  0  0.60319  1.05104  17929.9  1.94316  -0.169522  1
274  0  1.07943  0.594025  17687.8  1.94605  -0.20062  1
275  0  0.554692  -0.617063  17420.5  2.10019  -0.136404  1
276  0  0.119692  -0.499796  17410.2  2.14939  -0.226871  1
277  0  0.943072  -0.428711  17501.7  2.02936  -0.0712206  1
278  0  -0.292236  0.343904  18186.6  1.89291  -0.186339  1
279  0  0.141493  0.592874  17992.5  1.94849  -0.0826704  1
280  0  0.59239  0.548352  17779.8  1.9821  -0.154448  1
281  0  0.845261  0.350801  17691.4  1.97467  -0.215376  1
282  0  0.681726  -0.317628  17382.2  2.1078  -0.0365514  1
283  0  0.403359  -0.325108  17239.7  2.21178  -0.12395  1
284  0  0.191828  -0.261849  17113.9  2.28248  -0.235025  1
285  0  -0.0523111  -0.242917  17445.4  2.12955  -0.404433  1
286  0  0.354343  0.378782  17751.2  2.04705  -0.0925141  1
287  0  0.135449  0.31598  17915.1  1.99388  0.0127106  1
288  0  0.569316  0.287981  17631.8  2.05621  -0.198218  1
289  0  0.859673  -0.218398  17512  2.0312  -0.00087478  1
290  0  -0.304676  0.0219296  18107.6  1.87692  -0.326981  1
291  0  -0.0397567  0.233512  18280.4  1.81286  -0.00604482  1
292  0  0.706988  0.217846  17621.9  2.02774  -0.247401  1
293  0  0.861875  0.184099  17682.2  1.98562  -0.265601  1
294  0  1.0119  -0.14973  17664.2  1.94529  0.0158887  1
295  0  0.540576  -0.217732  17242.1  2.19354  -0.0222011  1
296  0  1.01145  0.151873  17721.7  1.94502  -0.235099  1
297  0  0.67963  -0.16423  17345.7  2.18143  0.0431093  1
298  0  0.0809921  -0.180201  16996.5  2.31974  -0.375496  1
299  0  -0.899924  0.642643  18200.8  1.97729  -0.476847  1
300  0  0.43425  0.236095  17575.8  2.10064  -0.145387  1
301  0  0.301288  0.233413  17582.9  2.11574  -0.0498456  1
302  0  0.310375  -0.184219  17022.5  2.31505  -0.127436  1
303  0  0.424378  -0.159781  17081.4  2.31491  -0.0445827  1
304  0  -0.148651  0.0106767  18284.5  1.74279  -0.390026  1
305  0  -0.0813711  -0.131919  17633.5  2.02668  -0.533895  1
306  0  -0.344487  -0.26165  17813.7  2.00021  -0.387072  1
307  0  -0.0756659  0.068698  18703.2  1.48542  -0.235506  1
308  0  0.176002  -0.145374  16848.4  2.41698  -0.244486  1
309  0  0.779113  -0.144164  17436.9  2.1248  0.0546567  1
310  0  1.52997  -0.0866241  17554.2  1.88594  -0.10848  1
311  0  0.872763  -0.107184  17557.1  1.98899  0.0791131  1
312  0  0.593887  0.186613  17566.8  2.08159  -0.235539  1
313  0  0.209501  0.207032  17625.7  2.10964  0.0501518  1
314  0  0.0895836  0.198609  17982  1.94111  0.160988  1
315  0  -1.22401  -0.384916  17915.7  1.98952  -0.412182  1
316  0  0.567866  -1.12405  17497  2.04853  -0.186789  1
317  0  0.0139739  0.147404  18407.6  1.68707  0.186069  1
318  0  -0.215775  -0.506902  17630.9  2.08009  -0.308678  1
319  0  -1.00303  -1.14654  17732.3  2.00378  -0.402218  1
320  0  0.769834  0.143474  17624.3  2.07192  -0.286229  1
321  0  0.606147  -0.123472  17250.6  2.25347  0.0503146  1
322  0  1.41231  -0.550048  17491.3  1.94663  -0.121803  1
323  0  0.502944  0.174835  17518.9  2.14112  -0.201523  1
324  0  1.28516  1.29173  17686.6  1.95796  -0.203784  1
325  0  0.921623  0.105438  17718.1  2.01582  -0.294543  1
326  0  -0.21708  0.163959  18278.4  1.78448  -0.188295  1
327  0  0.508662  -0.12571  17136.6  2.30698  0.0112124  1
328  0  0.367033  0.179656  17484.3  2.17917  -0.106457  1
329  0  1.41039  0.307022  17602.7  1.94014  -0.182793  1
330  0  0.654959  0.139064  17559.7  2.17229  -0.276082  1
331  0  1.27296  0.0452036  17694.6  1.81308  -0.184796  1
332  0  0.70841  -0.103723  17355.1  2.11778  0.0843593  1
333  0  0.0289219  -0.115992  16884  2.32948  -0.595623  1
334  0  0.244913  -0.115317  16825.1  2.46983  -0.161044  1
335  0  0.93185  -0.0758409  17629.4  1.76362  0.0869532  1
336  0  0.320181  -0.109299  16893.1  2.41125  -0.0874764  1
337  0  -1.18489  0.186371  18061.9  1.9914  -0.437407  1
338  0  -0.472291  -1.1309  17650.7  2.06174  -0.358791  1
339  0  0.830167  0.10404  17663.2  2.07959  -0.314595  1
340  0  0.176091  1.08946  18117.5  1.90588  -0.110359  1
341  0  0.432824  0.157794  17474.8  2.21277  -0.167101  1
342  0  -0.0679615  0.00227984  18488.2  1.53417  -0.617314  1
343  0  0.993862  -0.0673784  17711.8  1.65244  0.0676641  1
344  0  -0.875262  1.38219  18443.2  1.9585  -0.462739  1
345  0  -0.235038  -0.111546  17937.6  1.92791  -0.391026  1
346  0  0.107245  -0.107979  16617.8  2.534  -0.394807  1
347  0  0.977696  0.0741092  17764.5  1.95815  -0.288773  1
348  0  1.09018  0.0667502  17781.9  1.86919  -0.222257  1
349  0  1.10095  -0.0420864  17779.2  1.44323  -0.0336008  1
350  0  1.2334  -0.257608  17584.9  1.94116  -0.0680095  1
351  0  0.378314  -0.110999  16965.7  2.36738  -0.0445252  1
352  0  -0.0475347  0.462824  18102.8  1.92281  -0.0741984  1
353  0  -0.657622  -0.281329  17878.1  2.00677  -0.482146  1
354  0  0.275954  0.16709  17448.2  2.24896  -0.0250886  1
355  0  0.334532  -0.540129  17381.5  2.13974  -0.1764  1
356  0  1.10533  -1.41646  17474.5  2.00128  -0.198175  1
357  0  1.19347  0.240816  17669.6  1.92721  -0.214868  1
358  0  0.153985  0.152438  17565.2  2.17332  0.224122  1
359  0  -0.0371673  -0.0663277  17540.9  1.96763  -0.839182  1
360  0  0.690921  0.363912  17688.2  2.00282  -0.202534  1
361  0  0.814592  0.568805  17738.6  1.96041  -0.188584  1
362  0  0.409021  0.785512  17928.8  1.95188  -0.131927  1
363  0  0.82147  -0.0732728  17485  1.76167  0.0990327  1
364  0  0.0835189  -0.307157  17275.6  2.2152  -0.294114  1
365  0  0.44463  -0.103499  17047.4  2.27614  -0.000648571  1
366  0  0.750717  -0.518307  17445.2  2.07801  -0.0958939  1
367  0  0.742394  -0.784253  17465.6  2.05166  -0.143745  1
368  0  0.552233  -0.34967  17323.3  2.15658  -0.0767236  1
369  0  -0.410082  0.164596  18139  1.89439  -0.305692  1
370  0  0.564571  0.134043  17500.7  2.21487  -0.249515  1
371  0  0.755729  -0.233884  17425.3  2.0729  0.00326196  1
372  0  0.719807  0.107039  17574.8  2.12292  -0.30159  1
373  0  0.389738  -0.813527  17466.1  2.08476  -0.179795  1
374  0  0.554737  -0.093926  17161.2  2.08014  0.049082  1
375  0  0.643063  -0.0794616  17263.8  1.83459  0.0739165  1
376  0  -0.566166  0.448078  18162.3  1.96157  -0.338684  1
377  0  0.213241  -1.48648  17545.5  2.03953  -0.22321  1
378  0  0.97188  -0.287886  17549.8  1.99025  -0.029747  1
379  0  -1.41271  0.976878  18261.5  1.98018  -0.408359  1
380  0  0.107199  0.138422  17753.7  2.036  0.341047  1
381  0  0.0580383  0.120735  18242.8  1.74819  0.406685  1
382  0  -0.298369  0.634505  18174.4  1.94791  -0.153043  1
383  0  0.753304  -0.0735849  17409.3  1.79249  0.0983357  1
384  0  -0.881357  -0.629169  17811.6  2.01963  -0.462834  1
385  0  0.155605  -0.0912584  16562.5  2.51468  -0.266586  1
386  0  0.820381  -0.35774  17465  2.05467  -0.0523048  1
387  0  -0.156105  1.46383  18387.7  1.83354  -0.0670843  1
388  0  0.228647  0.150386  17354.9  2.31479  0.063604  1
389  0  0.97015  0.278477  17694.7  1.94602  -0.225624  1
390  0  0.424857  1.46201  18106.9  1.90761  -0.192927  1
391  0  1.44494  -1.01948  17446.5  1.97249  -0.171529  1
392  0  0.887341  -0.0488428  17577  1.37719  0.0929515  1
393  0  -0.0137289  0.0756359  19001  1.28865  0.0950467  1
394  0  0.321639  0.137367  17378  2.29711  -0.0889703  1
395  0  -0.0286792  -0.728466  17540.8  2.08632  -0.230735  1
396  0  0.782159  0.0900278  17583.8  2.02079  -0.308488  1
397  0  0.488547  -0.0866762  17080.2  2.0027  0.0310243  1
398  0  0.872583  0.067049  17679.9  1.90048  -0.31325  1
399  0  0.520165  0.123027  17447.5  2.19275  -0.237176  1
400  0  0.285848  -0.384666  17267.9  2.20681  -0.180937  1
401  0  0.60835  0.11224  17496.2  2.12578  -0.267185  1
402  0  0.473718  0.128616  17432.4  2.23025  -0.201848  1
403  0  0.204648  -0.0864042  16663.8  2.38323  -0.174641  1
404  0  0.237293  -0.194885  16994.2  2.3197  -0.189907  1
405  0  0.913512  0.853541  17773.2  1.96185  -0.187222  1
406  0  -0.433879  -0.0917299  17970.8  1.95724  -0.398986  1
407  0  1.52978  0.771294  17559.9  1.96161  -0.20136  1
408  0  0.932833  0.0580384  17738.1  1.85371  -0.297552  1
409  0  -0.16785  -0.222626  17700  2.02381  -0.394714  1
410  0  -0.296736  -0.765073  17639.3  2.0713  -0.31265  1
411  0  0.391407  0.584923  17865.7  1.98024  -0.116206  1
412  0  -1.46255  -0.900162  17818.1  1.9828  -0.361525  1
413  0  0.928309  -0.141452  17596.2  1.9997  0.0431657  1
414  0  0.934235  -0.636953  17481.2  2.03179  -0.118344  1
415  0  -0.574589  0.801019  18205.8  1.99365  -0.317724  1
416  0  0.477611  0.415079  17734  2.02901  -0.141235  1
417  0  -0.0523294  -0.405509  17496  2.12598  -0.292781  1
418  0  0.0126143  -0.0662624  16563.4  2.39585  -0.942809  1
419  0  -0.921726  -0.0712653  17993.8  1.98764  -0.479137  1
420  0  -0.0396383  0.834411  18134.8  1.93407  -0.080947  1
421  0  0.380269  0.139115  17414.1  2.25849  -0.131856  1
422  0  0.0648168  -0.0788956  16243.2  2.63442  -0.586819  1
423  0  0.174549  -0.700794  17470.2  2.10104  -0.207177  1
424  0  0.297996  -0.29494  17176.5  2.25227  -0.167016  1
425  0  0.667625  0.767144  17832.6  1.96245  -0.156379  1
426  0  -0.827231  0.250057  18093.8  1.99341  -0.475395  1
427  0  0.599002  -0.0778726  17220.3  1.82385  0.067012  1
428  0  0.862178  1.37347  17883.6  1.93843  -0.198144  1
429  0  0.223116  0.299331  17773.9  2.05236  -0.00992  1
430  0  0.198595  0.458796  17912.9  1.98456  -0.0610869  1
431  0  0.381378  -0.237321  17139.4  2.25106  -0.102618  1
432  0  0.686932  -0.0691491  17313.5  1.61774  0.0803289  1
433  0  -1.48586  -1.43855  17730  1.98459  -0.340659  1
434  0  0.67088  0.0998362  17537.9  2.06934  -0.286208  1
435  0  -0.0731878  -1.31719  17574.9  2.06626  -0.24072  1
436  0  -0.108144  -0.0429674  18093.1  1.7935  -0.544676  1
437  0  -0.591113  -0.897378  17699.2  2.04997  -0.417797  1
438  0  0.672556  -1.50236  17505.4  2.02189  -0.203285  1
439  0  0.266688  -0.0835802  16767.1  2.23875  -0.107005  1
440  0  0.623848  -0.248902  17327.3  2.13859  -0.012039  1
441  0  1.16367  -0.558381  17508.4  1.98498  -0.104799  1
442  0  0.432662  -0.458884  17343.4  2.15466  -0.145028  1
443  0  1.12571  -0.376779  17555.1  1.97053  -0.0639048  1
444  0  1.11384  -0.244691  17602.1  1.95712  -0.0423683  1
445  0  0.456719  -0.231431  17177.7  2.2255  -0.0694791  1
446  0  -0.658956  -1.5394  17641.4  2.02591  -0.354853  1
447  0  0.633125  0.256249  17622.8  2.04476  -0.22372  1
448  0  -1.3807  1.50647  18401.4  1.92375  -0.418253  1
449  0  -1.31696  0.606246  18182.9  1.96862  -0.425645  1
450  0  0.80262  0.215058  17657.6  1.99289  -0.253009  1
451  0  -0.0373734  0.00271253  18687  1.36017  -0.842117  1
452  0  0.94667  -0.0434224  17661.9  1.30573  0.0802709  1
453  0  0.333321  -0.0813593  16847.4  2.11516  -0.051611  1
454  0  0.467354  0.328505  17668.7  2.06473  -0.148273  1
455  0  -0.00355971  -0.185599  17280.7  2.19059  -0.454164  1
456  0  0.661259  -0.457398  17407.8  2.10304  -0.0895757  1
457  0  0.396963  -0.0824849  16939.2  2.05525  -0.00328591  1
458  0  0.385555  0.251239  17598.2  2.10305  -0.111373  1
459  0  1.54187  -1.50796  17423.3  1.97518  -0.204874  1
460  0  -1.55192  -0.0793568  18001  1.97902  -0.376755  1
461  0  0.538761  0.234377  17585.7  2.07742  -0.199356  1
462  0  -0.178147  0.298974  18216.2  1.86461  -0.124938  1
463  0  0.0532897  0.285724  18057.2  1.9278  0.0327866  1
464  0  0.16563  -0.367193  17280.4  2.20956  -0.239862  1
465  0  -0.116592  0.179857  18360.6  1.74128  -0.0988713  1
466  0  -0.162851  0.11992  18358.4  1.72724  -0.201161  1
467  0  0.110867  -0.0766147  16384.3  2.58103  -0.369467  1
468  0  1.23297  0.892039  17666.5  1.9565  -0.191302  1
469  0  0.992479  0.0423779  17804.8  1.73738  -0.281175  1
470  0  -0.647102  0.274382  18117.7  1.96665  -0.418404  1
471  0  0.902918  -1.03727  17478.4  2.02243  -0.169147  1
472  0  1.01768  0.457981  17689.1  1.95155  -0.207917  1
473  0  0.139784  -0.210704  17029.6  2.31417  -0.292941  1
474  0  0.0168464  0.0842278  18843.7  1.36836  0.349533  1
475  0  0.361017  -0.1677  17026  2.33016  -0.0918198  1
476  0  0.944489  0.179938  17707.4  1.95196  -0.246426  1
477  0  -0.151155  -0.988091  17591.1  2.0769  -0.257116  1
478  0  -0.0203165  0.0469113  19233.8  1.0138  -0.103911  1
479  0  1.1984  -1.15396  17465.2  1.9953  -0.180139  1
480  0  -0.012736  -0.043509  17142.6  2.0531  -1.15572  1
481  0  0.180204  0.135657  17410  2.31219  0.192624  1
482  0  -0.529743  1.37032  18436.2  1.92062  -0.192424  1
483  0  -0.144889  -0.329735  17599.9  2.07586  -0.344177  1
484  0  0.728188  -0.156881  17397.6  2.16382  0.0472332  1
485  0  0.823755  0.0708153  17656.4  1.92274  -0.311216  1
486  0  0.274155  0.137082  17345.8  2.32676  -0.0264332  1
487  0  0.839002  -0.0509537  17513.7  1.39669  0.0954287  1
488  0  0.794762  -0.0568795  17443.5  1.48103  0.0902641  1
489  0  1.05238  0.0213241  17860.4  1.40271  -0.189529  1
490  0  1.02961  0.0649073  17796.6  1.88697  -0.255597  1
491  0  0.76149  0.316845  17673.4  1.99737  -0.22018  1
492  0  1.05735  -0.104934  17736.6  1.84574  0.0039925  1
493  0  1.17795  -0.142057  17675.3  1.86214  -0.0440068  1
494  0  0.429349  0.126738  17428.2  2.23137  -0.17269  1
495  0  0.734862  0.084089  17566  1.97727  -0.297562  1
496  0  -0.451021  0.0448768  18060  1.93036  -0.371144  1
497  0  1.27861  -0.770814  17477.2  1.97847  -0.142754  1
498  0  0.607353  -0.190317  17284.5  2.17869  0.015444  1
499  0  0.562275  -0.163856  17228.3  2.23097  0.0117969  1
500  0  0.353532  -1.09464  17510  2.06393  -0.196242  1
501  0  0.831301  -0.163119  17485.2  2.08207  0.0362998  1
502  0  0.179353  0.80995  18032  1.93619  -0.104893  1
503  0  0.523028  -0.076008  17120.5  1.84254  0.0450711  1
504  0  0.70996  0.169886  17602.1  2.06953  -0.266456  1
505  0  0.620419  0.4018  17702.5  2.00981  -0.181667  1
506  0  0.722214  -0.0623747  17355.8  1.56571  0.0860231  1
507  0  0.36555  -0.0833939  16903.1  2.12459  -0.0259438  1
508  0  0.299741  -0.0854699  16813.4  2.2378  -0.0844091  1
509  0  -0.871779  0.986593  18304.1  2.00445  -0.473323  1
510  0  0.0859521  0.471784  18007.4  1.95158  -0.0561046  1
511  0  0.972153  -0.112665  17656.4  1.93272  0.0518235  1
512  0  0.233789  -0.0814528  16744.8  2.29421  -0.137021  1
513  0  0.653164  0.201825  17594.9  2.05224  -0.245608  1
514  0  0.133647  0.214842  17822.8  2.02857  0.118134  1
515  0  1.1922  0.438066  17648.5  1.94108  -0.202039  1
516  0  0.916588  -0.0502023  17616.1  1.40562  0.0887589  1
517  0  -0.0336835  -0.599418  17527.7  2.1042  -0.242181  1
518  0  0.992429  -0.0347661  17725.1  1.13798  0.0955907  1
519  0  1.05025  -0.0266027  17826.7  1.12912  -0.0360736  1
520  0  -0.853353  -0.384187  17873.9  2.01119  -0.485818  1
521  0  -0.0375982  0.12978  18583.4  1.58396  0.0349981  1
522  0  -0.236232  0.030977  18178.3  1.82495  -0.319685  1
523  0  0.638234  0.100963  17519.6  2.07876  -0.279493  1
524  0  0.957292  -0.22648  17571.6  1.98482  -0.00900589  1
525  0  -0.0345977  -0.134096  17379.1  2.12511  -0.578845  1
526  0  0.473345  -0.171548  17138.9  2.27298  -0.0276435  1
527  0  0.349715  0.132732  17413.4  2.28501  -0.117154  1
528  0  1.7003  0.171666  17487.1  1.94583  -0.168836  1
529  0  0.136052  0.121887  17412.7  2.12534  0.375554  1
530  0  0.874752  0.120335  17685.4  2.04251  -0.300241  1
531  0  -0.364749  -0.454385  17722.9  2.05035  -0.374869  1
532  0  -0.0482015  -0.0290586  18034.1  1.69434  -0.852018  1
533  0  0.525686  0.681462  17844.4  1.96911  -0.140241  1
534  0  -1.08222  -1.60361  17668.3  2.00102  -0.368558  1
535  0  0.0898928  0.109159  17824.1  1.90129  0.512142  1
536  0  -0.185325  -0.0662098  18012.8  1.8743  -0.417277  1
537  0  0.44436  -0.0717473  17032.4  1.65732  0.02297  1
538  0  -0.0737075  0.345331  18163.7  1.88898  -0.0655954  1
539  0  0.571805  -0.783099  17458.1  2.07322  -0.155647  1
540  0  0.279923  -0.147724  16912.6  2.40854  -0.145806  1
541  0  -1.61716  -0.527459  17894  1.9809  -0.354891  1
542  0  0.560308  0.102024  17468  1.89981  -0.225175  1
543  0  -0.418833  0.512953  18175.6  1.95196  -0.233643  1
544  0  0.0430789  -0.0557716  15825.4  2.49946  -0.750732  1
545  0  0.405354  1.20483  18053.9  1.90987  -0.16258  1
546  0  0.155636  1.35623  18203.8  1.87572  -0.126355  1
547  0  0.672665  -0.126221  17318.9  2.20993  0.0621481  1
548  0  0.89897  0.0565721  17721.1  1.82314  -0.305708  1
549  0  0.125309  -0.163185  16897.4  2.36198  -0.327551  1
550  0  0.542494  0.178808  17528.1  2.117  -0.219048  1
551  0  -0.196726  0.513965  18148  1.92808  -0.117464  1
552  0  -0.0891023  0.649585  18122.6  1.929  -0.0907936  1
553  0  0.321445  0.310108  17706.3  2.0721  -0.0672783  1
554  0  -0.349345  -0.0796286  17996.8  1.93091  -0.369428  1
555  0  -0.0934268  1.19254  18273  1.88515  -0.0653004  1
556  0  0.0427433  -0.240781  17227.3  2.22392  -0.365821  1
557  0  0.786539  -0.0863306  17435.2  1.9398  0.0921683  1
558  0  0.0265249  0.21556  18181.4  1.8493  0.091839  1
559  0  -0.469202  -0.31985  17824.7  2.01168  -0.423027  1
560  0  0.737487  -0.399116  17428.6  2.08385  -0.0655437  1
561  0  0.502039  -0.269769  17251  2.19212  -0.0623858  1
562  0  0.45213  -0.687819  17433.1  2.0992  -0.164804  1
563  0  -1.12748  -0.843113  17796.5  2.00066  -0.404868  1
564  0  0.820996  0.158622  17646.8  2.02592  -0.277959  1
565  0  0.964404  0.0443535  17771.2  1.75369  -0.289823  1
566  0  1.50812  -0.337339  17514.4  1.92088  -0.102406  1
567  0  0.179104  -0.0691795  16566.8  2.07534  -0.164331  1
568  0  -0.310538  -1.66037  17586  2.03538  -0.286986  1
569  0  -1.58  0.36191  18120  1.97235  -0.374581  1
570  0  -0.434025  0.366586  18165.9  1.9249  -0.25628  1
571  0  1.58331  1.58331  17585.7  2.05054  -0.235976  1
572  0  0.494502  0.109514  17413.1  1.95518  -0.1988  1
573  0  0.690121  -0.239039  17377.2  2.10465  -0.00126786  1
574  0  0.575865  -0.0637148  17178.6  1.49782  0.0457892  1
575  0  0.619947  -0.0597554  17241.2  1.38918  0.0587833  1
576  0  0.704433  -0.651582  17449.9  2.0711  -0.12361  1
577  0  1.6374  1.12953  17519.2  1.96295  -0.213063  1
578  0  0.885941  -0.303655  17503.2  2.02359  -0.0372173  1
579  0  0.815289  -0.278729  17466.7  2.04525  -0.0220401  1
580  0  -0.117924  0.0407102  18469.5  1.63066  -0.343869  1
581  0  0.0085542  0.0544998  19240.2  0.963043  0.25866  1
582  0  -0.672395  1.68534  18759.2  1.83924  -0.262251  1
583  0  1.07676  1.65878  17838.3  2.01022  -0.233269  1
584  0  1.11997  0.175508  17699.7  1.93035  -0.219293  1
585  0  -0.324726  0.132762  18172.4  1.85681  -0.276742  1
586  0  0.25397  0.221332  17596.4  2.11635  -0.00459897  1
587  0  0.663831  -0.0555356  17289.7  1.30395  0.0627097  1
588  0  1.07511  1.12686  17751.5  1.9533  -0.192254  1
589  0  0.32526  0.193728  17512.2  2.14858  -0.0707645  1
590  0  0.789614  -0.189847  17444.9  2.08873  0.0216059  1
591  0  0.687906  0.078975  17531  1.68964  -0.242841  1
592  0  -0.0662212  -0.182576  17506.8  2.08964  -0.473196  1
593  0  1.59789  -0.76989  17441.8  1.94589  -0.156655  1
594  0  -0.717553  -0.483073  17824  2.02573  -0.486146  1
595  0  0.876998  0.270842  17684.8  1.96715  -0.233245  1
596  0  0.238641  -0.527382  17385.5  2.1474  -0.201554  1
597  0  0.815018  -0.114198  17472.1  2.0545  0.0783514  1
598  0  1.32825  0.637852  17620.4  1.94528  -0.190305  1
599  0  0.275296  -0.229262  17073  2.29262  -0.167746  1
600  0  -0.171145  -0.13699  17831.3  1.95753  -0.428293  1
601  0  0.0661995  -0.110276  16679.7  2.45501  -0.507695  1
602  0  -0.637352  -0.111158  17965.9  1.97999  -0.475203  1
603  0  -0.722343  -1.11691  17697.6  2.03162  -0.41437  1
604  0  0.0898025  -0.0604004  16144.3  2.31964  -0.384049  1
605  0  0.474027  -0.115044  17087.4  2.30936  -0.00100849  1
606  0  1.63439  0.558805  17514.3  1.95577  -0.198641  1
607  0  0.792416  0.45168  17713.4  1.96898  -0.198285  1
608  0  -1.21744  -0.0902015  17991.6  1.98844  -0.424599  1
609  0  0.365133  -0.409096  17294.8  2.18634  -0.157714  1
610  0  0.488347  0.220205  17567.7  2.09474  -0.17822  1
611  0  0.618263  0.155338  17546.5  2.13748  -0.256553  1
612  0  -1.06734  1.68031  18525  1.85132  -0.502758  1
613  0  0.134276  -0.064547  16417.9  2.16301  -0.233548  1
614  0  0.30972  0.466687  17836.9  2.00622  -0.0891272  1
615  0  -1.09109  0.82712  18243  1.98395  -0.482242  1
616  0  0.965871  0.121963  17732.1  1.97898  -0.269428  1
617  0  0.350795  -0.130764  16966.8  2.40644  -0.0770358  1
618  0  0.453551  -1.34561  17518  2.03987  -0.204651  1
619  0  0.206165  0.124271  17254.5  2.19151  0.122961  1
620  0  0.154871  -1.22574  17540.6  2.06497  -0.212853  1
621  0  0.40724  0.197934  17522.4  2.13522  -0.132652  1
622  0  0.844893  -0.457757  17470.9  2.05566  -0.0796693  1
623  0  0.414581  -0.116011  17011.8  2.35052  -0.0240947  1
624  0  0.184399  1.70604  18289.7  1.8874  -0.205417  1
625  0  0.0784047  -0.406755  17378.8  2.1715  -0.258784  1
626  0  -1.04468  0.406985  18126.8  1.98445  -0.469671  1
627  0  0.750351  -0.0477724  17406  1.15167  0.0785527  1
628  0  0.0467555  0.0860462  18462.3  1.51549  0.563906  1
629  0  0.744968  -0.111936  17398.4  2.10982  0.0801522  1
630  0  0.22973  -0.330131  17221.8  2.23557  -0.208092  1
631  0  -1.67857  0.687874  18200  1.971  -0.356934  1
632  0  0.207852  -0.121799  16792.4  2.49902  -0.209971  1
633  0  -0.0500978  0.0336206  18932.5  1.25821  -0.41869  1
634  0  1.05337  0.22938  17699.6  1.9328  -0.21914  1
635  0  1.06376  0.344473  17682.4  1.94794  -0.214389  1
636  0  0.251445  0.124813  17253.2  2.1512  0.0134126  1
637  0  0.272587  0.68185  17958.2  1.95163  -0.109916  1
638  0  0.0600026  0.16376  18142.6  1.84115  0.239417  1
639  0  0.506661  0.282758  17624.9  2.07215  -0.174648  1
640  0  -0.279709  0.213431  18215  1.8477  -0.212369  1
641  0  0.417911  0.290579  17638  2.08431  -0.1285  1
642  0  0.799697  0.0615568  17603.5  1.62987  -0.260165  1
643  0  1.77433  -0.194856  17451.9  1.91467  -0.132326  1
644  0  0.295923  0.121769  17322.9  2.07591  -0.0574486  1
645  0  -0.327576  -0.616117  17666.7  2.06842  -0.338674  1
646  0  0.843109  0.0524111  17669.9  1.54895  -0.266812  1
647  0  0.0700618  0.0947398  18088.7  1.72728  0.612922  1
648  0  0.449961  0.110427  17412.4  1.93904  -0.16946  1
649  0  0.267904  0.369098  17798.5  2.03513  -0.0557173  1
650  0  0.626859  0.329323  17663.1  2.03094  -0.200916  1
651  0  0.405502  0.115187  17377  1.98145  -0.13499  1
652  0  1.43744  0.0979668  17610.3  1.89902  -0.159357  1
653  0  0.635196  -0.148873  17295.1  2.21927  0.0415875  1
654  0  0.548586  -0.0655203  17153.8  1.4309  0.0558249  1
655  0  0.860262  -0.0378714  17546.6  1.03771  0.0776119  1
656  0  0.816977  -0.0401859  17478.5  1.05514  0.0704732  1
657  0  0.548682  -0.458529  17375.6  2.12914  -0.111032  1
658  0  -0.166237  0.405006  18167.8  1.90119  -0.118939  1
659  0  0.688498  0.131103  17569.2  2.14655  -0.286928  1
660  0  0.114578  0.110239  17549.5  2.02705  0.48543  1
661  0  0.161981  0.119444  17275.3  2.16426  0.274237  1
662  0  0.00692024  -0.343532  17407.8  2.16044  -0.304449  1
663  0  0.136008  -0.264446  17155.1  2.26644  -0.276391  1
664  0  0.143382  -0.126767  16744.9  2.46917  -0.310872  1
665  0  1.01827  -0.221624  17603.7  1.96392  -0.0106981  1
666  0  -0.164043  -0.648278  17589.7  2.08477  -0.27086  1
667  0  1.71544  -0.508689  17446.5  1.90991  -0.136231  1
668  0  0.755653  0.0672688  17579.9  1.6568  -0.261662  1
669  0  0.692222  0.473871  17731  1.98176  -0.180993  1
670  0  0.681624  0.624609  17784.2  1.96826  -0.164143  1
671  0  -0.561915  1.01796  18284.1  1.9817  -0.278867  1
672  0  0.421203  0.994272  17995  1.92993  -0.146275  1
673  0  0.723389  1.67605  17984.8  1.98399  -0.211596  1
674  0  0.469793  -0.0669932  17048.4  1.47183  0.0182221  1
675  0  1.31792  -0.090349  17625.8  1.82082  -0.0972471  1
676  0  0.420558  -0.0646953  16966.2  1.47117  0.0250688  1
677  0  0.455694  0.190807  17521.5  2.13162  -0.168121  1
678  0  0.750037  0.18788  17628.9  2.02818  -0.261992  1
679  0  0.537699  0.098714  17464  1.81463  -0.209908  1
680  0  0.909666  -0.110764  17588.3  1.97953  0.0717159  1
681  0  0.581261  0.0929132  17477  1.76552  -0.218039  1
682  0  0.860407  -0.0711139  17543.5  1.71977  0.0979766  1
683  0  0.881562  -0.149403  17547.3  2.04079  0.0426694  1
684  0  0.9696  -0.0228244  17690.5  0.796516  0.0509691  1
685  0  0.916968  -0.193258  17558.6  2.0086  0.00935129  1
686  0  0.741071  -1.24005  17492.7  2.0295  -0.188573  1
687  0  -0.244688  -0.0206615  18077.1  1.86664  -0.361437  1
688  0  0.61384  -0.314072  17341.2  2.13702  -0.0452214  1
689  0  -1.07307  1.13927  18318.2  1.99496  -0.501406  1
690  0  0.845825  1.07335  17840.1  1.95308  -0.183934  1
691  0  0.938053  0.677112  17734  1.95332  -0.194733  1
692  0  0.0445922  -0.15349  17006.3  2.30271  -0.471149  1
693  0  0.588222  0.234773  17594.2  2.06415  -0.21885  1
694  0  -1.6482  1.27732  18338.4  1.96431  -0.355371  1
695  0  0.0676799  -0.0528154  15804.4  2.31228  -0.486275  1
696  0  0.201015  -0.063035  16587.9  1.73697  -0.118642  1
697  0  0.651055  1.25308  17966.3  1.92364  -0.186198  1
698  0  0.751112  -0.303  17427.5  2.07546  -0.0291539  1
699  0  1.02718  -0.572005  17496  2.01608  -0.104506  1
700  0  1.07236  -0.69562  17486.3  2.00812  -0.126954  1
701  0  -0.235281  -0.291278  17716.5  2.02969  -0.366456  1
702  0  -0.23339  -0.403917  17668.1  2.06032  -0.339685  1
703  0  -0.827685  0.0844605  18045.9  1.98873  -0.486451  1
704  0  0.64139  -0.0520742  17251.6  1.13745  0.0632716  1
705  0  0.912367  -1.68146  17495.5  2.0057  -0.211226  1
706  0  -0.825344  -0.88405  17749.1  2.02323  -0.442221  1
707  0  0.181129  0.252631  17773.3  2.05764  0.0523237  1
708  0  0.156915  -0.061555  16449.6  1.93044  -0.159569  1
709  0  0.190442  -0.193529  16985.1  2.33139  -0.232701  1
710  0  0.77415  -0.0417855  17431.7  1.0093  0.0677095  1
711  0  0.75627  0.108128  17593.8  2.10937  -0.30413  1
712  0  0.198243  0.164524  17490.9  2.21622  0.116609  1
713  0  0.100487  0.253487  17955.9  1.97612  0.0786366  1
714  0  0.712204  0.0752052  17549.2  1.70617  -0.24946  1
715  0  0.489575  0.529836  17795.2  1.99482  -0.136585  1
716  0  0.228816  0.120271  17202.8  2.09449  0.0560746  1
717  0  0.882544  -0.0284176  17570.2  0.787241  0.0610548  1
718  0  0.0162749  -0.0401534  15734.6  2.37708  -1.1497  1
719  0  0.69268  0.281912  17650.1  2.0218  -0.224612  1
720  0  0.471735  0.105456  17400.3  1.81297  -0.177716  1
721  0  -0.248643  -0.199361  17811.3  1.98557  -0.388071  1
722  0  0.515631  0.100087  17407.6  1.75732  -0.193561  1
723  0  -0.0140889  -1.59276  17569.1  2.04223  -0.249211  1
724  0  0.602865  0.0876821  17477.3  1.62429  -0.211379  1
725  0  0.382755  0.111614  17382.2  1.84128  -0.123035  1
726  0  0.317978  0.11499  17303.9  1.88574  -0.0817933  1
727  0  -0.0202684  -0.0164193  17730.2  1.53614  -1.40947  1
728  0  0.535267  0.362135  17684.6  2.03977  -0.170994  1
729  0  0.927296  0.0286544  17738.5  1.20448  -0.22115  1
730  0  0.776927  0.0605698  17573.8  1.50607  -0.249143  1
731  0  0.863696  0.0435039  17671.9  1.33946  -0.239776  1
732  0  0.959718  -0.0753083  17674.6  1.74121  0.0789895  1
733  0  -0.10761  -0.00080357  18328.6  1.68062  -0.488174  1
734  0  0.467928  -0.334038  17274.9  2.18959  -0.101029  1
735  0  -1.31892  -1.1533  17759.2  1.98567  -0.363135  1
736  0  1.31629  -1.67344  17456.7  1.98819  -0.211588  1
737  0  1.30617  -0.384764  17537.8  1.94784  -0.0904606  1
738  0  0.287449  -0.114396  16845.6  2.44539  -0.119406  1
739  0  0.08446  -0.622235  17479  2.1121  -0.223257  1
740  0  0.328197  -0.235072  17106.7  2.27295  -0.134033  1
741  0  0.2313  -0.153399  16905.2  2.39497  -0.191251  1
742  0  0.0385437  0.3671  18053.5  1.93346  -0.0237793  1
743  0  1.15834  0.0204924  17766.5  1.62963  -0.169201  1
744  0  0.801256  0.117467  17628.8  2.09505  -0.306348  1
745  0  0.517241  -0.166558  17187.8  2.25874  -0.00591433  1
746  0  -0.79802  0.455349  18148.8  1.98154  -0.445793  1
747  0  -0.00197364  0.1102  18700.2  1.50236  0.166305  1
748  0  0.443181  -0.56923  17396.7  2.1237  -0.154506  1
749  0  0.408618  0.451131  17781.7  2.01826  -0.116206  1
750  0  0.597552  -0.055441  17202.6  1.19295  0.0505799  1
751  0  0.546078  0.869994  17898.4  1.95257  -0.150068  1
752  0  0.855265  -0.574605  17467.2  2.05441  -0.106816  1
753  0  -1.62476  -1.15029  17776.5  1.97551  -0.341442  1
754  0  -0.0408725  0.172437  18414  1.70207  0.0183361  1
755  0  0.23052  -0.838073  17487.7  2.08572  -0.19768  1
756  0  0.0938542  -0.230374  17136.8  2.26733  -0.332232  1
757  0  0.0267281  0.109723  18528.8  1.57537  0.344566  1
758  0  0.656088  -0.552161  17420  2.09621  -0.109857  1
759  0  0.39129  -0.144524  17024.1  2.35877  -0.062337  1
760  0  0.568783  -0.267597  17292.6  2.16243  -0.0370654  1
761  0  0.180078  -0.10917  16698.7  2.51487  -0.244229  1
762  0  0.487549  -0.958905  17484.1  2.06514  -0.178286  1
763  0  0.350286  -0.102857  16916.9  2.37626  -0.0583645  1
764  0  0.507926  -0.0590829  17078.4  1.28084  0.0445101  1
765  0  -1.3211  -0.606028  17865.7  1.98964  -0.386169  1
766  0  -0.550842  0.127205  18081  1.94676  -0.402773  1
767  0  -0.489186  0.643419  18194.8  1.96921  -0.262346  1
768  0  1.37993  -1.33974  17448.1  1.9842  -0.192114  1
769  0  0.794901  0.732809  17783.3  1.96094  -0.176232  1
770  0  0.911149  0.227042  17693  1.95616  -0.245366  1
771  0  0.903583  -0.802837  17476.4  2.02887  -0.143475  1
772  0  0.543002  -0.129109  17181.3  2.28658  0.0245939  1
773  0  -0.345222  -1.37287  17611  2.06128  -0.302118  1
774  0  0.459049  -1.70888  17525.5  2.0184  -0.216147  1
775  0  0.0489754  0.715833  18075.2  1.92845  -0.0861983  1
776  0  0.0279568  0.57858  18059.1  1.9336  -0.0758626  1
777  0  0.400313  -0.197129  17099.6  2.27318  -0.0759057  1
778  0  0.667982  0.0779309  17519.4  1.57249  -0.235308  1
779  0  0.907818  0.152245  17702.4  1.9844  -0.271682  1
780  0  1.07586  -0.172607  17658.2  1.94246  -0.0241623  1
781  0  0.932705  -0.357132  17515.5  2.0201  -0.0519043  1
782  0  1.02656  -0.372093  17538  1.99897  -0.0537366  1
783  0  -0.215695  0.82346  18187.1  1.94418  -0.0979087  1
784  0  0.685087  -0.0458062  17300  1.00051  0.0566883  1
785  0  1.69063  -1.27073  17412.4  1.96509  -0.193788  1
786  0  0.191716  0.367677  17867.3  2.01017  -0.0272311  1
787  0  0.24713  0.554304  17914.5  1.97412  -0.0902955  1
788  0  0.820554  -0.690993  17467  2.04661  -0.127597  1
789  0  0.705738  -0.04593  17325.3  1.04341  0.0573588  1
790  0  -0.431058  -0.209781  17883.4  1.98407  -0.40895  1
791  0  0.0175287  -0.506306  17472.1  2.13183  -0.249026  1
792  0  0.898609  0.0852532  17704.4  2.01138  -0.310479  1
793  0  -0.645171  -0.66399  17759.2  2.04116  -0.456839  1
794  0  0.243899  0.180275  17502.2  2.18256  0.0226816  1
795  0  0.949506  0.0898872  17745.1  1.99942  -0.29123  1
796  0  0.674922  -0.0899736  17303.5  1.98155  0.0774305  1
797  0  -0.337337  -0.926299  17641.5  2.06906  -0.326644  1
798  0  0.972456  -0.0487399  17697.8  1.40096  0.0815218  1
799  0  -0.791348  -0.176418  17940.5  1.99447  -0.493515  1
800  0  0.301235  -0.656176  17433.5  2.1121  -0.189104  1
801  0  0.315819  -0.143642  16950.4  2.40297  -0.109029  1
802  0  0.267114  -0.0613592  16728  1.48187  -0.0479513  1
803  0  0.927186  -0.0258726  17640.6  0.806681  0.0568119  1
804  0  -1.67224  1.68128  18404.7  1.95789  -0.327203  1
805  0  -1.3718  -1.68428  17688.6  1.98958  -0.338015  1
806  0  0.529163  -0.104142  17132.7  2.19864  0.0394908  1
807  0  -0.0993385  0.260458  18250.3  1.83937  -0.0704226  1
808  0  -1.68996  -1.68796  17709.4  1.98001  -0.32765  1
809  0  0.362187  0.114728  17382.6  1.92704  -0.116451  1
810  0  0.890682  0.458082  17706.6  1.95932  -0.20433  1
811  0  0.943513  0.552088  17712.4  1.95183  -0.201038  1
812  0  0.453534  -0.135627  17084  2.339  -0.0182538  1
813  0  -0.0244517  -1.10098  17568  2.07911  -0.227835  1
814  0  -0.375556  1.65539  18650.3  1.80352  -0.012004  1
815  0  -0.4578  -0.732426  17693.1  2.06039  -0.387102  1
816  0  -0.0144872  0.00288806  18764.5  0.818653  -1.07471  1
817  0  1.01744  0.0213175  17828.1  1.35474  -0.239071  1
818  0  1.01361  -0.100252  17717.3  1.87199  0.0415942  1
819  0  -0.684977  0.633969  18194.6  1.98069  -0.395278  1
820  0  0.0946198  -0.14244  16820.3  2.38827  -0.39482  1
821  0  0.246949  -0.0625515  16733.7  1.63584  -0.0739542  1
822  0  0.648137  0.0814384  17524.5  1.651  -0.234823  1
823  0  0.735801  0.895408  17843.6  1.96041  -0.168965  1
824  0  0.655019  -0.201352  17334  2.14494  0.0203894  1
825  0  1.09208  0.772138  17703  1.9536  -0.195311  1
826  0  0.123388  0.175485  17790.4  2.02014  0.19669  1
827  0  1.20557  -0.960359  17468.6  1.98973  -0.1622  1
828  0  0.73255  0.1421  17597.3  2.10662  -0.286345  1
829  0  0.345598  -0.345752  17240.1  2.21596  -0.150681  1
830  0  0.535244  0.148289  17496.8  2.19984  -0.234423  1
831  0  0.450882  0.136311  17443.5  2.25521  -0.185528  1
832  0  0.906182  0.0343375  17744.9  1.31551  -0.228896  1
833  0  0.0888419  -0.0855362  16440  2.61367  -0.464794  1
834  0  -0.00978324  -0.0935085  17119.4  2.20396  -0.730027  1
835  0  1.16872  0.109319  17716.7  1.94101  -0.216581  1
836  0  0.363466  -0.284883  17182.6  2.24296  -0.130936  1
837  0  0.583839  -0.0998872  17216.7  2.11696  0.0562489  1
838  0  0.399852  0.163573  17461.4  2.21011  -0.139808  1
839  0  0.617742  -0.0969324  17245.8  2.06643  0.0636423  1
840  0  0.338085  0.11558  17369.1  1.93216  -0.096766  1
841  0  0.429148  -0.280425  17211.6  2.22206  -0.0982226  1
842  0  0.726676  -0.0416077  17362.3  0.917435  0.0599198  1
843  0  0.344472  0.15957  17451.2  2.25363  -0.0980097  1
844  0  1.01705  -0.014233  17829.6  0.850139  -0.0191753  1
845  0  0.977706  -1.22088  17477.8  2.01285  -0.186455  1
846  0  -0.0376303  1.01277  18182.3  1.92409  -0.0754116  1
847  0  0.313016  -0.0634597  16803.5  1.51803  -0.0451238  1
848  0  -0.0892155  0.125856  18530.3  1.62061  -0.111761  1
849  0  0.529064  -0.0559276  17122.5  1.17519  0.0515299  1
850  0  0.222887  -0.0612694  16659.2  1.69988  -0.108531  1
851  0  0.624382  0.0833396  17477.8  1.66199  -0.218699  1
852  0  0.287548  -0.0639876  16757.7  1.59274  -0.0617036  1
853  0  0.377415  -0.0615678  16895  1.3858  -1.67627e-05  1
854  0  0.353319  -0.0630432  16850.1  1.43017  -0.0156045  1
855  0  0.424218  -0.0876875  16995.7  2.12804  0.00674589  1
856  0  0.641824  -0.112275  17274.8  2.19003  0.0622981  1
857  0  1.74669  -1.01202  17408.9  1.94985  -0.1801  1
858  0  -0.0407566  0.0635433  18949.4  1.30953  -0.131151  1
859  0  1.06796  0.128467  17733.8  1.94532  -0.227873  1
860  0  0.942069  0.36492  17691.8  1.96009  -0.214871  1
861  0  -0.603081  -1.29923  17660.8  2.04411  -0.374378  1
862  0  0.709233  -0.197287  17378.2  2.11721  0.0248367  1
863  0  0.883994  0.0406612  17699  1.3724  -0.237226  1
864  0  0.947034  -0.0202878  17654.8  0.661642  0.0490876  1
865  0  0.903027  -0.0287287  17607  0.845583  0.0618432  1
866  0  0.633716  0.124923  17517  2.18164  -0.281161  1
867  0  0.27128  0.267307  17668.5  2.09536  -0.0316685  1
868  0  0.468853  0.156057  17478  2.21363  -0.191886  1
869  0  0.409559  0.140481  17426.4  2.26401  -0.157157  1
870  0  -0.229912  -1.15731  17606.3  2.07711  -0.278677  1
871  0  -0.154479  -0.817845  17594.1  2.07469  -0.260753  1
872  0  0.222219  -0.101658  16752.8  2.48803  -0.175313  1
873  0  0.254436  0.150913  17386.7  2.30894  0.0100822  1
874  0  0.169964  0.191705  17675.1  2.08432  0.118718  1
875  0  0.843123  -0.098734  17514.2  1.98145  0.0899289  1
876  0  0.130275  -0.0934332  16556.1  2.57985  -0.335422  1
877  0  -0.325771  1.20833  18343.7  1.90727  -0.0945781  1
878  0  1.04994  -0.299361  17573.4  1.96944  -0.0333412  1
879  0  0.704782  -0.133695  17363.6  2.19956  0.061805  1
880  0  0.21164  -1.75762  17551  2.02382  -0.233393  1
881  0  0.333227  -0.0596881  16810.6  1.29709  -0.0152506  1
882  0  1.32524  0.181875  17668.3  1.94616  -0.191901  1
883  0  0.352812  0.220616  17554.4  2.11888  -0.0910566  1
884  0  0.970215  0.0220803  17795.5  1.25251  -0.208466  1
885  0  0.398845  -0.0598165  16906.8  1.25455  0.0274538  1
886  0  0.414448  0.357874  17706.8  2.05765  -0.121009  1
887  0  0.590092  0.136931  17521.5  2.20293  -0.254236  1
888  0  0.543597  0.121219  17480.3  2.19604  -0.244404  1
889  0  0.580366  0.116501  17494.1  2.17839  -0.258924  1
890  0  0.294868  0.146807  17393.2  2.31901  -0.0517426  1
891  0  1.03789  -0.0644568  17763  1.57873  0.0297464  1
892  0  0.0517244  -0.198089  17120.4  2.26597  -0.402463  1
893  0  0.573628  0.163213  17532.4  2.13728  -0.240973  1
894  0  0.284151  0.894576  18023.6  1.93262  -0.122086  1
895  0  0.112587  -0.0558667  16214.8  2.02177  -0.251883  1
896  0  -1.41981  0.142097  18055.1  1.98247  -0.395832  1
897  0  -0.104136  -0.242014  17572.5  2.07495  -0.399117  1
898  0  -0.391913  0.822449  18196.8  1.97567  -0.184174  1
899  0  0.775209  -0.0641364  17421.7  1.59136  0.0985334  1
900  0  0.0989855  -0.798433  17511  2.08461  -0.211427  1
901  0  -0.172624  0.215097  18267.8  1.80971  -0.137545  1
902  0  0.727281  -0.978655  17479.2  2.0441  -0.166474  1
903  0  0.271072  -0.184058  16979.1  2.32744  -0.160943  1
904  0  0.498511  0.141676  17465  2.23432  -0.217286  1
905  0  0.632538  -0.382736  17376.7  2.12038  -0.0697624  1
906  0  0.728138  -0.0859291  17381.6  1.93414  0.102312  1
907  0  -0.0774061  -0.0580884  17905  1.84551  -0.652265  1
908  0  1.37994  1.09368  17627.1  1.96346  -0.201587  1
909  0  -0.000390155  -0.0259762  16009.4  1.94479  -1.58221  1
910  0  0.947762  0.0284948  17747.8  1.30177  -0.219717  1
911  0  -1.07484  -0.51008  17861.2  2.0017  -0.435236  1
912  0  -0.0820041  -0.0247537  18195.9  1.71091  -0.623481  1
913  0  -0.380854  -0.00736509  18044.4  1.92038  -0.358352  1
914  0  0.89845  -0.0788028  17585.6  1.79524  0.0939564  1
915  0  -1.7479  0.988415  18274.8  1.97564  -0.344207  1
916  0  -0.334176  -0.153724  17904.5  1.96287  -0.385981  1
917  0  -1.46277  -0.322671  17939  1.98136  -0.378383  1
918  0  -1.73586  -0.227157  17971.1  1.97522  -0.347991  1
919  0  -0.873727  -1.34687  17688.6  2.01389  -0.392662  1
920  0  0.44449  -0.194454  17139.4  2.24915  -0.0518719  1
921  0  0.913584  -0.248375  17536.9  2.00205  -0.0174743  1
922  0  0.523165  0.201724  17549.7  2.09306  -0.203089  1
923  0  -0.988201  0.126541  18052.4  1.99369  -0.469639  1
924  0  1.06799  -1.04684  17472.4  2.00678  -0.170813  1
925  0  0.245448  -0.275914  17136.2  2.27378  -0.195245  1
926  0  1.73464  -1.73464  17412.4  1.97614  -0.213112  1
927  0  0.807407  0.0887814  17631.4  2.05071  -0.317327  1
928  0  -0.255275  0.108143  18225.1  1.81634  -0.261949  1
929  0  0.74981  -0.190015  17416.3  2.11029  0.0266552  1
930  0  0.991874  0.0180944  17786.3  1.20054  -0.219685  1
931  0  0.761518  0.387739  17698.3  1.98352  -0.204152  1
932  0  0.0376464  -0.0848563  16551.5  2.49139  -0.70641  1
933  0  0.286412  0.199995  17520.7  2.14337  -0.0322842  1
934  0  -0.147551  -0.430037  17587.3  2.09213  -0.305064  1
935  0  -0.781979  0.813306  18245.4  1.99361  -0.441113  1
936  0  -0.0174034  -0.904219  17551.5  2.07674  -0.224448  1
937  0  0.202934  -0.432564  17327.7  2.183  -0.213055  1
938  0  1.10103  0.0118703  17802.9  1.40717  -0.145908  1
939  0  0.819993  0.0505583  17633.4  1.38513  -0.236005  1
940  0  0.939814  -0.521758  17489  2.03547  -0.093819  1
941  0  0.464271  -0.0887919  17069.6  2.11493  0.0175339  1
942  0  -1.71979  -0.788451  17839.8  1.97679  -0.338466  1
943  0  0.310314  -0.46206  17333  2.16903  -0.179747  1
944  0  0.848873  0.0829299  17666.9  2.01225  -0.316355  1
945  0  1.77785  1.37664  17484  2.01135  -0.213165  1
946  0  1.01052  0.108264  17754.3  1.96211  -0.253337  1
947  0  0.183701  0.115301  17264.8  2.0915  0.197733  1
948  0  1.37591  1.77717  17695.7  2.08752  -0.263844  1
949  0  -0.118792  -0.0896733  17868.3  1.91194  -0.519314  1
950  0  -0.190013  -0.00367476  18175.5  1.80855  -0.37049  1
951  0  0.00511469  -0.136537  17124.4  2.23087  -0.571509  1
952  0  0.559083  0.464654  17739.7  2.00457  -0.159585  1
953  0  0.273415  0.116845  17265.7  1.97813  -0.0253327  1
954  0  0.423023  -0.382907  17290.1  2.18626  -0.131974  1
955  0  -0.367673  0.0686724  18107.5  1.89451  -0.323568  1
956  0  -0.00249554  0.0336394  19468.6  0.519088  -0.0626233  1
957  0  -1.14299  1.39424  18417.8  1.94309  -0.516186  1
958  0  1.75761  0.904969  17468.7  1.96254  -0.217294  1
959  0  -0.149452  1.76505  18536.3  1.80801  -0.0799261  1
960  0  0.0812467  0.139336  18000.5  1.89413  0.348827  1
961  0  0.78638  0.175345  17636.2  2.02231  -0.26819  1
962  0  -0.148656  -0.0297877  18132  1.80369  -0.44876  1
963  0  -0.729513  -0.0227788  18005.9  1.98039  -0.486197  1
964  0  0.597194  -0.150747  17249.1  2.2409  0.0325406  1
965  0  0.3707  0.309385  17671.1  2.07969  -0.0992349  1
966  0  0.0307401  0.0660353  18913.1  1.20068  0.530025  1
967  0  0.582277  -0.219964  17271.4  2.17256  -0.007876  1
968  0  0.561682  0.202419  17561.4  2.08336  -0.219502  1
969  0  0.754434  0.250536  17649.9  2.00608  -0.239658  1
970  0  0.695859  0.0984317  17547.5  2.08757  -0.29646  1
971  0  -0.329422  -0.346216  17749.9  2.02953  -0.375042  1
972  0  1.20563  -0.0417592  17699.3  1.59408  -0.0906769  1
973  0  0.092284  0.163123  17949.9  1.93786  0.252688  1
974  0  0.427362  0.106591  17389.2  1.78425  -0.140534  1
975  0  0.940339  -0.103206  17632.3  1.94228  0.069511  1
976  0  0.671972  0.169177  17585.8  2.08844  -0.260696  1
977  0  -0.118253  -0.167633  17684.6  2.01411  -0.456119  1
978  0  0.8116  -0.227683  17469.3  2.05104  0.00407026  1
979  0  0.962976  -0.175118  17609.2  1.97987  0.015708  1
980  0  -0.529385  -0.0226639  18006.6  1.9621  -0.430545  1
981  0  0.997869  0.205742  17705.2  1.93609  -0.23016  1
982  0  -0.124437  0.0816282  18481  1.64179  -0.236493  1
983  0  -0.568866  -1.77778  17614  2.0107  -0.32623  1
984  0  0.807227  0.275809  17671.5  1.98785  -0.232356  1
985  0  0.494761  -0.211317  17195.7  2.21588  -0.0387453  1
986  0  -0.176483  0.0554829  18307.1  1.74665  -0.305008  1
987  0  -1.30927  0.340722  18111.4  1.97767  -0.422653  1
988  0  -0.563142  -0.454526  17790.2  2.03471  -0.451473  1
989  0  0.473058  1.74954  18130.2  1.969  -0.233105  1
990  0  0.848753  -0.126528  17516.3  2.05779  0.0647797  1
991  0  -0.692899  0.139593  18065.1  1.97861  -0.464358  1
992  0  0.161343  -0.306155  17206.7  2.24547  -0.247705  1
993  0  -0.755843  1.1691  18360.4  1.99273  -0.407696  1
994  0  -1.76012  -1.41536  17745  1.97807  -0.330895  1
995  0  -1.36042  1.24978  18353.9  1.96215  -0.427568  1
996  0  0.130051  0.396268  17948.9  1.97491  -0.0294806  1
997  0  0.183715  -0.601277  17433.2  2.12536  -0.210396  1
998  0  -0.0117106  -0.0660733  17063.9  2.13611  -0.926119  1
999  0  0.307692  0.168368  17459.1  2.23596  -0.0614459  1
1000  0  -0.852282  -1.73856  17634.5  1.99955  -0.367353  1
1001  0  -1.18926  -1.39553  17711.5  1.99507  -0.366209  1
1002  0  0.0887067  0.912193  18098.4  1.9313  -0.0941968  1
1003  0  0.732677  0.064646  17554.5  1.454  -0.225121  1
1004  0  0.83804  -0.0318455  17506.5  0.826861  0.0692772  1
1005  0  -0.0993088  -0.516075  17552  2.10538  -0.271358  1
1006  0  0.794432  -0.036038  17449  0.858458  0.0650454  1
1007  0  -0.509348  0.258018  18137.4  1.9298  -0.334639  1
1008  0  0.489603  -0.399001  17325  2.16245  -0.112923  1
1009  0  0.228061  -0.231088  17060.1  2.30303  -0.205316  1
1010  0  1.11359  1.37744  17775.7  1.95007  -0.206265  1
1011  0  -1.38861  1.77942  18450.2  1.90332  -0.368812  1
1012  0  0.840995  0.13572  17663  2.04364  -0.292267  1
1013  0  1.78395  1.78395  17502.8  2.12667  -0.249588  1
1014  0  0.487276  -0.0547868  17055.1  1.17773  0.027271  1
1015  0  0.460379  0.271488  17613.2  2.085  -0.154018  1
1016  0  0.617744  0.209121  17586.6  2.06467  -0.236277  1
1017  0  0.574532  -0.126833  17209.1  2.26559  0.0381536  1
1018  0  -0.0166409  0.289867  18157.4  1.88545  -0.00458581  1
1019  0  1.0163  -0.0426302  17790  1.26028  0.0680907  1
1020  0  -0.0629621  -0.30987  17488.5  2.12045  -0.342804  1
1021  0  1.37911  -0.231337  17593.2  1.91477  -0.081221  1
1022  0  -0.0439738  0.0928506  18754  1.4711  -0.0331147  1
1023  0  -0.0201976  0.022175  19243.6  0.798298  -0.50853  1
1024  0  -1.72562  0.0965526  18049.8  1.97669  -0.353166  1
1025  0  0.157893  -0.174533  16900.9  2.36063  -0.278041  1
1026  0  1.39131  0.485436  17593.8  1.93443  -0.187522  1
1027  0  0.671489  0.239458  17622.9  2.03486  -0.236205  1
1028  0  1.03549  -0.464565  17515.2  2.00775  -0.0806427  1
1029  0  0.707227  -0.0798176  17332  1.87468  0.0936982  1
1030  0  0.876694  -1.44416  17488.9  2.01518  -0.198974  1
1031  0  0.356256  -0.204288  17075  2.27789  -0.105877  1
1032  0  -0.38508  0.269307  18170.1  1.89624  -0.255127  1
1033  0  -0.059853  -0.0956021  17614.6  2.00266  -0.646124  1
1034  0  1.04651  0.946652  17746.6  1.96078  -0.191434  1
1035  0  -1.08816  0.620749  18189.6  1.97057  -0.472772  1
1036  0  -0.285913  -0.0709931  18002.5  1.91342  -0.367365  1
1037  0  -0.306498  0.459804  18172.4  1.92712  -0.175546  1
1038  0  0.00153823  -0.283272  17356.7  2.17381  -0.35496  1
1039  0  0.88227  -0.394001  17489.9  2.04034  -0.0617473  1
1040  0  -0.0826324  0.0308671  18624  1.5112  -0.420148  1
1041  0  0.990883  -0.0142723  17705.5  0.55512  0.0528394  1
1042  0  -0.533239  -0.175001  17921.3  1.98288  -0.444  1
1043  0  0.487754  -0.145336  17136.7  2.31161  -0.00732877  1
1044  0  0.227799  0.249526  17688.8  2.0929  0.0128955  1
1045  0  -1.02178  -0.253385  17930  1.99862  -0.463062  1
1046  0  0.32334  -0.939329  17495.3  2.0749  -0.190736  1
1047  0  0.27286  0.311344  17731.4  2.0656  -0.0414181  1
1048  0  1.50202  1.33335  17596.5  1.97415  -0.214875  1
1049  0  0.333847  0.265345  17628.9  2.10356  -0.0737432  1
1050  0  0.662401  1.46881  18006.9  1.93217  -0.201231  1
1051  0  1.32279  1.50363  17691.1  1.99281  -0.227974  1
1052  0  0.654752  0.116538  17550.6  2.16062  -0.288249  1
