522  928  986
358  380  529
350  737  1021
376  570  1007
466  928  986
455  556  1038
514  707  713
398  530  944
352  551  552
268  471  771
368  657  905
280  533  670
445  561  841
334  439  512
442  609  943
397  503  806
291  465  754
362  411  533
349  492  493
500  618  620
455  525  592
282  440  573
431  445  777
475  617  801
353  520  594
521  754  848
442  657  748
438  705  774
377  435  620
300  458  621
279  430  510
286  614  649
326  640  928
384  563  911
392  717  865
327  397  806
366  576  752
462  640  901
501  590  978
298  473  549
376  470  746
310  528  643
376  470  1007
275  539  562
392  682  914
367  539  902
288  650  728
387  546  624
113  114  537
421  527  843
84  85  529
371  573  698
340  546  555
309  501  597
364  663  992
367  771  902
340  545  546
275  539  576
416  454  886
293  450  564
65  66  542
326  465  466
418  834  932
495  668  711
314  558  713
439  508  738
356  736  768
312  611  1016
43  583  673
285  455  1038
293  450  595
445  777  920
309  484  929
309  501  590
362  411  637
350  493  675
86  87  535
339  530  944
305  525  592
308  709  741
288  447  693
330  611  976
347  408  565
280  533  715
343  511  732
400  424  630
331  652  675
392  655  682
287  707  713
391  479  827
117  764  849
492  493  780
423  755  800
391  497  827
118  119  654
355  596  800
23  568  723
308  632  741
561  734  841
396  668  711
464  625  937
302  475  801
289  501  683
306  559  971
344  482  582
364  464  992
400  424  829
279  502  637
487  655  682
373  755  800
407  606  958
489  817  844
596  800  997
394  726  840
341  621  677
287  429  707
338  437  797
322  441  497
0  817  844
116  117  764
539  762  902
360  505  669
465  754  848
350  444  493
325  616  779
18  459  785
342  451  532
275  657  748
469  490  817
335  452  516
327  397  605
386  560  698
505  669  952
456  657  758
387  482  814
12  606  958
392  516  865
383  557  629
21  705  774
272  783  846
289  501  978
347  469  490
379  449  615
309  484  629
375  587  796
531  559  988
360  669  931
282  573  698
95  96  544
389  595  770
16  593  667
481  619  712
462  538  807
268  497  700
388  619  712
417  625  662
426  470  746
338  437  603
437  797  815
355  442  943
33  569  631
585  640  928
345  600  721
278  462  658
441  497  700
336  453  763
350  443  444
420  783  846
471  771  902
336  453  508
398  731  863
310  528  652
317  381  757
364  464  625
294  665  979
386  560  622
379  449  631
119  574  654
364  625  662
432  587  796
375  587  704
114  537  674
513  611  976
284  473  709
325  408  792
509  689  993
409  600  721
419  608  923
340  545  672
513  611  1016
351  457  507
328  421  843
409  483  897
435  723  773
299  615  935
326  640  901
43  44  583
29  753  942
357  634  635
426  626  923
376  543  767
12  13  606
598  606  1026
403  567  761
358  529  661
292  504  976
282  560  698
309  557  629
384  706  793
268  471  924
428  583  673
382  551  552
303  526  812
385  567  761
278  462  640
377  618  620
387  482  877
415  671  935
368  561  760
351  617  759
329  528  652
288  639  728
456  657  905
332  629  879
311  682  914
336  508  738
288  447  650
471  686  902
114  115  674
273  545  672
458  621  883
375  575  704
392  516  914
418  480  718
279  502  775
291  807  1018
23  24  568
563  765  911
309  590  929
389  595  860
449  569  631
366  456  560
292  513  976
538  807  1018
342  733  1040
436  907  949
394  527  840
411  533  715
377  435  723
296  634  859
328  621  883
275  657  758
289  578  579
413  511  979
316  686  902
276  625  937
274  598  825
425  533  670
101  102  567
279  430  787
431  445  841
907  949  1033
387  546  555
276  739  791
401  724  851
329  357  515
334  540  741
31  541  942
375  575  839
326  466  928
325  408  795
374  574  837
281  595  860
300  458  641
307  633  858
295  561  985
382  551  1037
353  520  799
358  380  826
68  69  572
408  548  792
287  463  713
482  582  814
459  736  926
356  479  768
272  555  846
352  538  742
313  707  874
416  749  886
408  729  910
430  614  649
340  672  894
274  515  598
357  515  635
282  440  688
36  694  804
372  495  714
355  748  800
29  30  942
293  530  1012
403  696  850
270  531  988
119  120  574
317  381  638
121  122  575
391  497  593
576  752  788
373  562  800
480  718  909
35  36  694
414  700  771
368  688  760
591  714  970
296  476  616
383  506  627
274  472  515
18  459  926
384  520  594
19  736  926
319  563  706
278  658  1037
352  552  776
344  482  993
288  461  693
498  499  967
509  671  935
459  736  768
315  765  917
368  688  905
340  555  846
318  531  702
377  618  774
285  455  592
398  548  863
298  473  756
422  601  932
506  627  842
403  512  850
401  523  851
437  706  793
531  559  971
445  561  985
427  575  839
346  664  820
427  574  837
317  558  638
498  499  964
455  556  892
524  665  979
329  528  606
288  461  639
413  511  975
362  637  894
363  488  557
363  487  682
269  500  620
289  683  685
384  563  706
319  603  706
509  615  935
438  618  774
566  737  1021
335  516  914
390  545  546
446  534  919
352  551  658
309  557  597
332  547  796
376  767  819
387  624  959
432  506  789
358  481  661
344  689  993
580  982  986
273  545  697
291  465  807
373  539  562
382  543  1037
374  574  654
391  479  768
472  515  635
410  797  815
33  34  631
388  712  794
363  487  656
333  834  932
363  488  656
454  639  728
336  617  763
382  552  783
444  493  780
316  500  618
39  40  582
397  503  764
284  473  663
451  532  727
319  563  735
367  539  576
300  621  677
123  124  587
59  60  591
455  525  951
17  18  785
40  582  814
304  580  986
297  653  824
290  554  1036
484  629  879
318  531  645
421  527  809
334  540  738
345  916  1036
372  714  970
385  613  708
389  476  770
306  559  790
408  729  832
328  421  838
411  614  787
446  568  773
378  524  665
505  650  728
334  512  872
462  538  658
269  500  1046
468  588  908
396  711  744
568  723  773
407  598  606
411  637  787
294  492  818
317  558  754
336  738  801
355  442  748
334  439  738
352  510  742
303  623  812
502  637  894
392  655  717
295  499  967
363  557  597
337  626  923
15  16  667
430  510  996
294  511  979
439  512  821
337  608  923
421  725  809
113  537  676
409  483  701
428  588  690
416  454  728
90  91  581
376  543  570
284  709  1009
30  31  942
307  633  1040
360  650  719
278  570  1037
347  408  795
344  582  612
390  546  624
498  653  824
439  508  852
607  669  931
374  503  654
480  532  727
289  578  921
16  593  857
398  530  792
465  466  848
280  669  952
366  560  622
452  516  803
407  468  598
316  618  686
322  497  593
293  770  779
412  541  765
449  569  987
366  576  758
297  484  879
359  480  532
351  457  623
434  523  822
514  707  874
406  554  916
463  558  713
290  585  928
425  533  751
66  542  679
65  542  681
408  548  832
127  128  627
453  508  847
387  555  877
386  578  1039
360  491  719
358  826  874
476  616  779
453  507  854
345  536  687
331  675  972
407  468  908
457  507  853
386  579  698
314  558  638
303  623  759
293  530  779
281  491  984
275  562  748
302  475  1031
578  781  1039
464  630  937
408  565  910
84  529  661
39  582  612
407  577  908
447  650  719
415  671  898
290  522  928
390  545  697
94  718  909
364  556  756
19  20  736
310  566  643
493  675  972
358  481  712
412  563  735
322  441  737
85  529  660
446  773  861
396  668  730
360  505  650
97  98  604
357  835  882
475  617  759
446  534  1000
540  741  903
460  608  896
541  765  917
99  100  613
287  463  742
385  664  876
417  625  791
322  566  737
551  658  1037
489  519  844
369  496  955
316  500  762
361  607  669
327  745  772
26  534  1000
303  759  777
21  22  774
287  429  786
426  626  746
461  610  639
272  671  898
420  552  783
282  560  905
362  533  751
295  561  760
437  603  706
81  82  619
463  742  1018
346  664  876
286  553  649
476  770  779
517  739  791
562  748  800
268  497  827
468  598  825
95  544  718
86  535  660
404  709  741
389  476  981
303  526  920
4  37  804
4  36  804
475  759  777
400  630  937
320  564  744
96  544  695
347  469  565
394  644  726
580  733  1040
526  812  1043
310  652  675
343  511  818
388  636  716
323  550  830
291  558  1018
425  751  823
361  669  670
385  567  708
399  830  904
566  643  667
87  535  647
385  664  761
88  89  628
332  796  1029
337  608  896
268  700  771
357  584  634
275  576  758
366  456  758
426  470  991
364  663  756
468  588  1034
450  564  961
311  680  683
443  444  878
460  608  917
399  679  722
289  579  978
372  495  711
342  451  633
503  764  849
38  39  612
406  496  913
345  721  916
396  642  730
318  645  666
323  610  677
432  796  1029
601  692  820
436  949  962
411  715  749
401  681  724
384  594  793
323  830  904
517  666  1005
79  80  636
283  734  841
54  55  642
349  493  972
326  465  901
369  585  640
272  555  877
329  606  1026
52  53  646
463  558  1018
77  78  644
273  690  697
418  480  998
404  709  1009
397  764  1014
333  834  951
324  588  908
331  835  882
549  664  820
365  623  812
70  71  648
335  452  732
381  628  647
372  659  828
397  674  1014
72  73  651
428  583  1010
439  802  852
434  778  822
417  483  1020
94  95  718
398  646  731
278  570  1032
489  490  817
388  619  716
318  666  1005
354  794  933
333  601  932
356  705  736
466  848  982
553  867  1049
280  669  670
441  443  1028
540  738  801
386  578  579
328  589  843
130  131  656
432  506  1029
132  133  655
305  949  1033
14  528  643
346  601  833
313  712  794
317  521  747
416  715  749
20  705  736
369  585  955
302  599  903
290  554  913
332  547  879
357  584  835
356  479  845
488  557  899
353  594  988
270  793  988
295  499  745
422  601  833
534  919  1001
301  867  1049
538  742  1018
102  567  696
315  608  917
395  517  739
371  579  698
509  671  993
411  614  749
406  790  916
496  766  980
101  567  708
433  805  1001
505  728  952
432  784  789
314  514  713
56  57  668
520  911  1045
299  626  746
3  27  808
439  802  821
353  559  1042
20  21  705
304  580  733
346  467  876
83  84  661
3  28  808
385  613  876
423  800  997
428  690  697
270  531  645
120  574  750
361  607  810
416  728  952
68  572  722
122  575  704
286  614  749
121  575  750
374  503  806
85  86  660
69  572  720
404  599  903
13  528  606
382  543  767
302  599  740
317  521  754
440  688  760
347  616  795
509  615  689
300  610  677
453  507  763
345  536  600
400  937  943
48  49  729
401  611  866
297  547  653
425  769  823
25  26  1000
412  541  942
534  805  1001
314  514  826
611  887  893
499  745  772
395  739  900
299  615  1035
290  522  687
346  467  833
297  484  862
87  88  647
13  14  528
112  113  676
434  659  1052
297  824  862
308  664  1025
489  519  938
378  578  921
373  539  762
514  826  874
448  694  804
381  638  960
502  775  1002
301  589  883
137  138  684
23  723  880
281  607  931
369  496  766
292  513  1027
405  769  823
290  687  1036
331  743  972
66  67  679
351  617  763
64  65  681
407  577  958
401  611  887
321  653  856
371  579  978
431  836  841
399  572  904
276  596  937
274  472  811
286  749  886
123  587  704
374  837  1017
362  672  751
371  573  862
33  569  1024
389  634  635
308  664  761
43  673  989
423  739  900
543  570  1037
341  621  838
281  491  931
320  711  744
293  595  770
297  547  879
315  911  1045
378  524  921
410  645  666
440  498  824
399  679  888
350  675  1021
393  474  581
90  581  966
124  587  784
536  949  962
91  581  956
294  511  818
405  690  1034
386  622  1039
490  859  946
334  632  741
311  680  914
271  766  980
402  572  904
290  585  955
400  609  829
319  919  1001
292  504  678
395  517  666
325  530  792
353  559  988
440  498  967
401  681  889
383  629  906
424  599  740
102  103  696
410  797  871
605  812  1043
627  710  899
421  651  725
279  510  776
296  859  946
59  591  714
42  43  989
60  591  778
502  894  1002
469  565  884
323  610  922
450  595  984
313  586  794
298  756  892
350  443  737
383  506  906
412  563  765
397  605  941
300  610  1015
378  578  781
406  554  913
536  600  949
307  848  1022
438  618  686
403  632  761
349  519  891
394  843  999
403  512  872
594  793  988
427  837  839
420  775  1002
122  123  704
383  557  899
429  649  1047
272  671  877
128  627  710
372  711  828
453  854  881
393  478  581
419  608  1045
120  121  750
340  894  1002
41  42  624
553  649  1047
273  751  823
393  474  747
118  654  849
501  597  990
446  568  983
406  496  980
389  635  860
26  534  805
483  701  702
96  97  695
453  847  881
520  799  1045
100  101  708
128  129  710
15  643  667
610  639  1015
412  735  753
553  867  1047
475  777  1031
428  588  1010
584  634  859
322  566  667
333  601  692
11  577  958
414  699  940
419  799  1045
294  492  780
457  853  885
320  678  828
329  357  882
359  834  1033
398  548  792
473  663  756
58  59  714
403  632  872
328  621  838
298  692  820
388  636  873
394  644  890
127  627  842
374  772  1017
293  564  1012
422  604  695
320  564  961
335  732  975
339  744  1012
296  634  981
271  602  980
133  134  717
401  523  866
393  747  1022
351  507  763
549  664  1025
283  829  954
325  616  795
434  523  1052
301  883  1049
100  613  708
69  70  720
406  980  1042
456  560  905
321  839  856
381  628  757
402  648  720
413  685  979
394  527  843
322  593  667
396  744  927
466  982  986
0  844  1041
592  897  977
76  77  726
97  604  695
279  637  787
73  74  725
515  598  1026
552  775  776
67  68  722
88  628  647
80  81  716
414  699  700
433  735  753
413  683  685
554  916  1036
286  553  965
281  607  810
521  848  1022
63  64  724
283  836  841
451  633  1023
569  896  987
339  744  927
413  680  683
341  677  868
379  631  915
361  691  811
31  541  918
325  530  779
307  580  1040
0  817  930
98  604  895
312  611  893
363  682  875
447  513  1016
559  790  1042
384  520  911
55  56  730
420  552  775
396  642  927
376  746  819
323  550  922
511  732  975
51  52  731
269  813  936
315  765  911
32  33  1024
589  843  999
431  777  1031
378  781  782
349  492  891
504  678  828
284  630  925
405  691  769
342  532  912
115  674  1014
99  613  895
336  617  801
352  538  658
526  920  985
452  803  864
500  762  1046
60  61  778
477  797  871
365  605  941
321  653  964
409  701  721
440  573  824
361  691  769
412  753  942
302  540  801
11  12  958
404  741  903
339  485  927
504  659  828
364  662  1038
81  619  716
399  572  722
304  950  986
341  494  831
124  125  784
339  485  944
366  622  752
341  494  869
363  597  875
441  443  737
596  937  943
330  659  976
328  589  883
368  561  734
383  627  899
362  672  894
571  948  1013
404  599  1009
335  680  914
331  652  882
31  32  918
379  615  689
354  486  890
571  945  1013
292  678  969
422  544  695
398  646  944
279  775  776
296  476  981
417  662  1020
133  655  717
352  510  776
82  619  947
70  648  720
338  603  861
425  670  769
375  796  856
390  697  1050
339  530  1012
22  23  880
347  490  946
291  558  754
330  611  866
448  612  1011
77  644  726
40  41  959
364  556  1038
345  687  1036
270  645  815
354  486  873
430  614  787
586  794  933
281  595  984
417  483  934
414  752  940
273  672  751
14  15  643
80  636  716
73  651  725
332  629  906
351  623  759
274  691  811
55  642  730
269  620  813
457  623  855
310  566  1021
429  649  786
298  549  820
525  834  951
105  106  802
450  678  969
305  525  1033
379  694  915
361  810  811
471  686  845
125  126  789
416  715  952
2  18  926
2  19  926
311  683  990
537  674  941
92  93  816
26  27  805
52  646  731
315  608  1045
365  605  812
289  685  921
348  835  859
360  491  931
79  636  953
428  673  1050
284  630  992
373  762  1046
380  535  660
93  727  816
89  628  966
415  767  819
92  816  1023
292  719  969
344  612  957
330  659  1052
348  743  938
550  893  968
135  136  803
430  786  996
390  989  1050
131  656  1004
525  834  1033
130  656  1006
273  690  823
132  655  1004
341  831  868
71  648  974
78  644  953
277  940  1028
294  665  780
547  653  856
54  642  939
74  75  809
38  612  1011
32  918  1024
573  824  862
56  668  730
410  645  815
72  651  974
93  727  909
53  646  939
67  679  722
370  830  893
424  630  925
409  600  977
378  665  878
305  592  977
64  681  724
16  17  857
365  537  855
24  25  983
323  677  868
477  813  936
308  632  761
380  529  660
61  62  822
405  690  823
371  862  929
104  105  821
337  626  987
421  651  869
365  537  941
347  616  946
348  489  490
390  624  989
368  657  1008
324  1010  1051
49  50  832
45  948  1013
75  76  840
441  699  1028
334  632  872
126  127  842
17  785  857
478  633  1023
10  945  1013
403  567  696
522  687  950
388  794  873
354  794  873
277  622  1039
367  576  788
112  676  885
583  1010  1051
418  544  718
286  886  965
107  108  847
588  690  1034
62  63  851
409  897  977
103  104  850
57  668  1003
602  980  1042
136  137  864
447  513  1027
449  615  1035
536  687  950
361  670  769
402  648  831
300  641  1015
24  568  983
106  107  852
342  733  912
460  918  1024
371  590  978
110  111  853
312  893  968
424  740  836
271  766  991
109  110  854
422  604  833
329  515  1026
50  51  863
83  661  947
369  640  1032
134  135  865
521  747  1022
355  596  943
405  691  825
427  574  750
346  601  820
524  685  979
537  676  855
358  712  874
382  783  898
427  575  750
522  950  986
402  572  720
470  766  991
274  691  825
391  785  857
556  756  892
316  762  902
564  744  1012
34  35  915
28  29  994
49  729  832
103  696  850
343  518  798
353  602  799
302  540  903
137  684  864
117  118  849
381  535  647
108  109  881
483  897  1020
434  659  970
382  767  898
312  693  968
269  755  1046
473  549  1025
457  676  855
111  112  885
301  586  933
335  680  975
455  692  951
426  703  991
92  956  1023
504  659  976
609  829  954
461  610  922
301  586  867
283  829  836
138  684  1041
477  797  870
46  47  884
44  45  948
271  963  991
10  11  945
349  743  938
419  703  963
98  99  895
356  705  1030
503  654  849
321  837  839
472  635  860
48  729  910
400  609  943
452  684  864
374  772  806
93  94  909
418  544  932
299  626  1035
306  790  916
125  784  789
457  676  885
526  745  985
134  717  865
414  771  788
338  773  870
413  680  975
365  623  855
432  587  784
129  710  1006
430  649  786
0  46  930
482  671  877
285  1020  1038
11  577  945
74  725  809
469  884  930
295  745  985
47  48  910
518  844  1041
445  920  985
63  724  851
353  602  1042
359  532  907
40  814  959
673  989  1050
391  593  857
393  478  858
471  845  924
271  602  963
76  726  840
441  699  700
419  799  963
448  612  957
61  778  822
320  711  828
474  581  966
438  705  1030
91  92  956
482  671  993
37  38  1011
338  773  861
550  922  968
105  802  821
277  781  782
422  544  932
452  684  798
53  54  939
1  45  1013
1  10  1013
307  580  982
359  480  998
312  693  1016
116  764  1014
280  715  952
126  789  842
106  802  852
460  896  1024
269  755  900
58  714  1003
292  719  1027
82  83  947
44  583  948
442  609  954
402  868  904
458  883  1049
276  625  791
474  747  757
419  703  923
370  542  889
370  542  888
313  586  1044
276  596  997
78  79  953
410  666  871
391  768  785
51  731  863
498  653  964
547  796  856
89  90  966
444  665  780
308  709  1025
303  777  920
434  591  778
379  694  995
458  641  965
135  803  865
424  599  925
34  631  915
104  821  850
71  72  974
313  707  1044
452  732  798
277  622  940
399  830  888
136  803  864
433  735  1001
478  581  956
269  900  936
75  809  840
305  949  977
455  692  892
107  847  852
435  773  870
447  719  1027
62  822  851
110  853  854
501  683  990
474  628  757
108  847  881
299  746  819
367  771  788
436  733  962
285  592  897
477  813  870
488  710  899
488  710  1006
109  854  881
35  694  915
371  590  929
569  896  1024
111  853  885
284  663  992
27  805  808
323  868  904
282  688  905
372  659  970
320  678  961
306  701  721
467  604  895
129  130  1006
348  743  835
131  132  1004
433  805  808
395  666  871
423  755  900
57  58  1003
431  740  1031
278  640  1032
276  739  997
424  829  836
270  793  815
25  983  1000
354  933  999
319  603  919
467  613  895
461  693  968
41  624  959
317  747  757
478  633  858
115  116  1014
483  702  934
344  689  957
301  589  933
50  832  863
341  838  869
324  588  1010
0  138  1041
348  490  859
421  838  869
467  604  833
550  830  893
487  656  1004
488  656  1006
442  657  1008
487  655  1004
448  694  995
454  641  1015
415  767  898
454  641  886
435  620  813
417  791  1005
268  827  924
349  519  938
324  908  1048
327  745  1043
426  703  923
431  740  836
454  639  1015
302  740  1031
285  897  1020
641  886  965
369  1007  1032
524  685  921
287  742  996
42  624  989
319  735  1001
338  797  870
479  845  924
377  723  880
378  782  878
449  626  1035
470  766  1007
414  752  788
699  940  1028
467  613  876
295  760  967
304  950  962
429  867  1044
495  714  1003
311  682  875
518  684  798
686  845  1030
602  799  963
327  772  806
491  719  969
584  835  859
517  791  1005
494  648  831
464  630  992
494  648  974
638  960  973
469  817  930
375  839  856
333  692  951
542  679  888
542  681  889
486  636  953
494  651  974
377  774  880
423  739  997
307  848  982
429  707  1044
402  831  868
296  616  946
622  752  940
397  674  941
281  810  860
343  732  798
451  727  816
662  1020  1038
486  644  953
46  884  930
486  636  873
47  884  910
494  651  869
481  619  947
701  702  971
380  535  960
532  907  912
310  675  1021
387  814  959
434  591  970
343  818  891
370  830  888
485  642  939
459  768  785
440  760  967
304  733  962
29  753  994
327  605  1043
485  646  939
349  743  972
446  983  1000
481  661  947
314  638  973
495  668  1003
337  896  987
354  890  999
465  807  901
486  644  890
449  626  987
450  678  961
22  774  880
461  922  968
447  693  1016
418  834  998
577  908  1048
401  887  889
518  684  1041
433  753  994
437  793  815
283  734  954
343  518  1019
586  867  1044
443  782  878
436  733  912
381  535  960
329  652  882
298  692  892
570  1007  1032
734  954  1008
435  813  870
389  634  981
480  727  909
442  954  1008
370  887  893
415  819  935
474  628  966
448  804  1011
369  766  1007
379  689  995
395  871  936
485  642  927
472  810  811
460  917  918
703  963  991
405  825  1034
484  862  929
420  846  1002
306  721  916
600  949  977
506  789  842
473  709  1025
356  845  1030
342  633  1040
499  772  1017
272  783  898
485  646  944
373  755  1046
589  933  999
541  917  918
603  861  919
499  964  1017
512  821  850
508  847  852
516  803  865
287  786  996
299  819  935
368  734  1008
462  807  901
507  853  854
37  804  1011
395  900  936
526  745  1043
306  701  971
348  489  938
313  712  874
433  808  994
318  702  934
331  743  835
428  697  1050
597  875  990
523  822  851
321  964  1017
311  875  990
406  790  1042
290  913  955
523  866  1052
527  809  840
277  782  1028
370  887  889
438  686  1030
380  826  973
343  891  1019
472  810  860
28  808  994
359  907  1033
340  846  1002
444  665  878
436  907  912
506  906  1029
689  957  995
359  834  998
446  861  919
458  965  1049
443  782  1028
536  950  962
599  925  1009
277  781  1039
479  827  924
531  702  971
548  832  863
519  844  1019
284  925  1009
450  969  984
417  934  1005
394  890  999
451  816  1023
307  858  1022
577  945  1048
518  844  1019
448  957  995
477  871  936
510  742  996
321  837  1017
393  858  1022
565  884  910
583  948  1051
571  945  1048
324  1048  1051
491  969  984
380  960  973
571  948  1051
519  891  1019
468  825  1034
553  965  1049
318  934  1005
332  906  1029
330  866  1052
496  913  955
429  867  1047
571  1048  1051
492  818  891
314  826  973
478  956  1023
